S0		A0		S1		S2		S3		S4		A1		A2		A3		A4	
477  Points		478  Points		404  Points		288  Points		221  Points		174  Points		435  Points		354  Points		239  Points		178  Points	
Freq (MHz)	Vph (m/ms)	Freq (MHz)	Vph (m/ms)	Freq (MHz)	Vph (m/ms)	Freq (MHz)	Vph (m/ms)	Freq (MHz)	Vph (m/ms)	Freq (MHz)	Vph (m/ms)	Freq (MHz)	Vph (m/ms)	Freq (MHz)	Vph (m/ms)	Freq (MHz)	Vph (m/ms)	Freq (MHz)	Vph (m/ms)
0.0249836	3.81048	1.84169e-007	2.30048e-005	2.1949	600.358	2.20816	382.068	4.40003	615.782	6.5971	1047.72	1.10006	394.124	3.3	747.438	4.40007	762.796	5.5	14700.7
0.0529235	3.81022	1.44944e-007	9.44941e-006	2.18484	198.814	2.21868	169.199	4.40012	303.901	6.5938	483.774	1.1008	108.726	3.30002	280.89	4.40038	335.864	5.50004	713.599
0.0808565	3.80981	1.0572e-007	4.66295e-006	2.17497	118.704	2.2294	109.038	4.40026	201.735	6.5906	314.388	1.10237	63.145	3.30004	172.942	4.40092	215.362	5.50015	365.682
0.108778	3.80922	6.64953e-008	2.21609e-006	2.16532	84.3981	2.24031	80.6462	4.40047	150.983	6.58749	232.802	1.10478	44.5633	3.30008	124.932	4.4017	158.515	5.50033	245.834
0.136686	3.80848	0.00954035	0.255506	2.15587	65.3507	2.25141	64.1192	4.40073	120.638	6.58448	184.802	1.108	34.4908	3.30013	97.7862	4.40271	125.427	5.50059	185.158
0.164575	3.80756	0.0135985	0.304405	2.14665	53.2368	2.26268	53.3072	4.40106	100.453	6.58156	153.19	1.11203	28.1827	3.30019	80.3323	4.40395	103.781	5.50091	148.51
0.192442	3.80648	0.0183397	0.352649	2.13765	44.8558	2.27414	45.6844	4.40144	86.0574	6.57873	130.799	1.11684	23.8687	3.30027	68.1662	4.40544	88.5188	5.50131	123.976
0.220283	3.8052	0.0237437	0.400137	2.12887	38.7142	2.28578	40.0222	4.40189	75.2732	6.57599	114.107	1.12243	20.738	3.30037	59.2011	4.40715	77.1807	5.50178	106.402
0.248094	3.80376	0.02979	0.446811	2.12032	34.0216	2.29759	35.6514	4.40239	66.8933	6.57335	101.186	1.12877	18.3666	3.30048	52.3206	4.4091	68.427	5.50232	93.1952
0.275869	3.80213	0.0364546	0.492592	2.112	30.3204	2.30958	32.176	4.40295	60.1945	6.57079	90.8866	1.13584	16.5114	3.3006	46.8735	4.41127	61.4654	5.50293	82.9078
0.303607	3.80031	0.0437138	0.537427	2.10392	27.3275	2.32173	29.3471	4.40358	54.7173	6.56833	82.4856	1.14361	15.0229	3.30075	42.4542	4.41368	55.7976	5.50362	74.6684
0.331301	3.79831	0.051542	0.581264	2.09609	24.858	2.33404	27	4.40426	50.1555	6.56595	75.5026	1.15206	13.8041	3.30092	38.797	4.41631	51.0941	5.50437	67.921
0.358948	3.79612	0.0599135	0.624062	2.0885	22.7863	2.34652	25.0217	4.40501	46.2976	6.56366	69.6066	1.16116	12.7894	3.3011	35.7204	4.41918	47.1287	5.50521	62.2943
0.386542	3.79373	0.0688031	0.6658	2.08117	21.0242	2.35916	23.332	4.40582	42.9925	6.56147	64.5623	1.17089	11.9327	3.30132	33.0964	4.42226	43.7407	5.50611	57.5306
0.414079	3.79113	0.0781842	0.706448	2.07409	19.5075	2.37196	21.8722	4.40669	40.1293	6.55936	60.1979	1.18122	11.2008	3.30155	30.8321	4.42557	40.8131	5.50709	53.4457
0.441555	3.78833	0.0880307	0.745987	2.06728	18.1889	2.38491	20.5987	4.40762	37.6252	6.55733	56.3846	1.19211	10.5692	3.30182	28.8582	4.4291	38.2583	5.50814	49.9042
0.468962	3.78531	0.0983181	0.784418	2.06074	17.0324	2.39801	19.4781	4.40861	35.4166	6.5554	53.0244	1.20355	10.0192	3.30211	27.1224	4.43285	36.0096	5.50926	46.8047
0.496296	3.78208	0.109021	0.821732	2.05447	16.0102	2.41126	18.4847	4.40967	33.4542	6.55355	50.0411	1.21551	9.53656	3.30244	25.5841	4.43681	34.0155	5.51046	44.0693
0.523552	3.77862	0.120116	0.857935	2.04849	15.1006	2.42465	17.5981	4.41079	31.6991	6.55179	47.3749	1.22796	9.11009	3.3028	24.2114	4.44099	32.2352	5.51173	41.6375
0.550723	3.77492	0.131579	0.893038	2.04279	14.2863	2.4382	16.8021	4.41197	30.1202	6.55011	44.9778	1.24087	8.7309	3.30319	22.979	4.44538	30.6363	5.51308	39.4616
0.577803	3.77099	0.143389	0.927048	2.03738	13.5534	2.45188	16.0836	4.41322	28.6923	6.54852	42.811	1.25423	8.39188	3.30363	21.8665	4.44998	29.1926	5.51451	37.5032
0.604785	3.7668	0.155523	0.959985	2.03228	12.8906	2.4657	15.4319	4.41454	27.3947	6.54701	40.8431	1.26801	8.08723	3.3041	20.8573	4.45479	27.8828	5.51601	35.7314
0.631662	3.76236	0.167962	0.991865	2.02748	12.2885	2.47965	14.8382	4.41592	26.2105	6.54558	39.0478	1.28218	7.81223	3.30462	19.9376	4.4598	26.6891	5.51758	34.1208
0.658427	3.75765	0.180685	1.02271	2.023	11.7396	2.49374	14.2952	4.41736	25.1255	6.54424	37.4035	1.29672	7.56291	3.30519	19.0961	4.46501	25.597	5.51924	32.6503
0.685072	3.75266	0.193675	1.05255	2.01884	11.2373	2.50797	13.7968	4.41887	24.1277	6.54299	35.892	1.31162	7.33602	3.30581	18.3233	4.47042	24.5941	5.52097	31.3026
0.711589	3.74738	0.206914	1.0814	2.01501	10.7761	2.52232	13.3376	4.42045	23.2071	6.54181	34.4978	1.32684	7.1288	3.30647	17.6112	4.47603	23.6699	5.52278	30.0629
0.737969	3.7418	0.220385	1.10929	2.01153	10.3515	2.5368	12.9134	4.4221	22.355	6.54071	33.2078	1.34238	6.9389	3.3072	16.9529	4.48183	22.8158	5.52466	28.9188
0.764203	3.7359	0.234074	1.13625	2.00839	9.95949	2.5514	12.5204	4.42381	21.5643	6.5397	32.0108	1.35822	6.76433	3.30798	16.3426	4.48782	22.0241	5.52663	27.8596
0.790282	3.72968	0.247965	1.16231	2.00561	9.59672	2.56612	12.1552	4.4256	20.8284	6.53877	30.8972	1.37433	6.60341	3.30882	15.7752	4.49399	21.2883	5.52867	26.8764
0.816195	3.72312	0.262045	1.18748	2.0032	9.26026	2.58097	11.8151	4.42746	20.142	6.53792	29.8585	1.3907	6.45464	3.30973	15.2465	4.50035	20.6027	5.5308	25.9612
0.841931	3.71621	0.276299	1.21181	2.00117	8.94755	2.59593	11.4977	4.42938	19.5002	6.53714	28.8875	1.40732	6.31676	3.3107	14.7526	4.50689	19.9625	5.53301	25.1073
0.86748	3.70893	0.290719	1.23532	1.99953	8.65639	2.61101	11.2006	4.43138	18.8988	6.53645	27.9778	1.42199	6.20463	3.31175	14.2903	4.51361	19.3633	5.5353	24.3088
0.89283	3.70126	0.30529	1.25803	1.99829	8.38483	2.62621	10.9222	4.43345	18.3343	6.53584	27.1238	1.43462	6.11442	3.31287	13.8566	4.5205	18.8014	5.53767	23.5605
0.917967	3.69319	0.320002	1.27998	1.99747	8.13117	2.64151	10.6607	4.43559	17.8032	6.5353	26.3205	1.44515	6.04328	3.31406	13.4491	4.52757	18.2734	5.54012	22.8577
0.94288	3.68471	0.334847	1.30119	1.99707	7.8939	2.65693	10.4147	4.43781	17.3028	6.53484	25.5637	1.45354	5.98913	3.31534	13.0655	4.5348	17.7764	5.54266	22.1966
0.967553	3.67579	0.349814	1.32169	1.99711	7.67168	2.67245	10.1829	4.4401	16.8306	6.53446	24.8493	1.45973	5.95043	3.3167	12.7037	4.5422	17.3079	5.54529	21.5736
0.991974	3.66642	0.364894	1.34149	1.99761	7.46334	2.68808	9.96399	4.44247	16.3841	6.53416	24.174	1.4637	5.92614	3.31815	12.362	4.54976	16.8654	5.548	20.9854
1.01613	3.65658	0.38008	1.36064	1.99857	7.2678	2.70381	9.75708	4.44492	15.9614	6.53393	23.5347	1.46944	5.89187	3.31968	12.0388	4.55747	16.4469	5.55079	20.4293
1.03999	3.64625	0.395364	1.37915	2.00001	7.08413	2.71965	9.56119	4.44744	15.5607	6.53377	22.9285	1.47569	5.85545	3.32132	11.7327	4.56535	16.0506	5.55368	19.9027
1.06356	3.63541	0.410738	1.39704	2.00195	6.91148	2.73558	9.3755	4.45005	15.1803	6.5337	22.353	1.48423	5.80726	3.32304	11.4424	4.57337	15.6747	5.55665	19.4035
1.08682	3.62405	0.426197	1.41434	2.0044	6.74908	2.75161	9.19924	4.45273	14.8188	6.5337	21.8059	1.49508	5.74841	3.32487	11.1667	4.58154	15.3177	5.55971	18.9294
1.10974	3.61216	0.441733	1.43108	2.00738	6.59624	2.76774	9.03173	4.45549	14.4747	6.53377	21.2852	1.5083	5.68024	3.32681	10.9046	4.58986	14.9782	5.56286	18.4788
1.13231	3.5997	0.457342	1.44726	2.01091	6.45234	2.78396	8.87235	4.45834	14.1469	6.53391	20.789	1.5239	5.60414	3.32885	10.6552	4.59831	14.6551	5.5661	18.0498
1.15451	3.58667	0.473017	1.46292	2.01444	6.33378	2.80027	8.72053	4.46127	13.8343	6.53413	20.3157	1.54195	5.52158	3.331	10.4176	4.60691	14.3472	5.56944	17.6411
1.17633	3.57306	0.488754	1.47806	2.01779	6.23748	2.81668	8.57577	4.46428	13.5358	6.53443	19.8637	1.56012	5.44373	3.33327	10.1909	4.61564	14.0534	5.57287	17.2513
1.19776	3.55885	0.504548	1.49272	2.0208	6.16101	2.83317	8.4376	4.46738	13.2506	6.53479	19.4316	1.57843	5.37018	3.33565	9.97459	4.6245	13.7729	5.57639	16.879
1.21876	3.54404	0.518354	1.50511	2.02335	6.10249	2.84975	8.30559	4.47057	12.9778	6.53523	19.0182	1.59685	5.30059	3.33816	9.76788	4.63349	13.5047	5.58001	16.5232
1.23933	3.52861	0.530153	1.5154	2.02531	6.06053	2.86642	8.17935	4.47384	12.7166	6.53574	18.6223	1.61537	5.23465	3.34079	9.57022	4.64261	13.2481	5.58373	16.1828
1.25946	3.51257	0.539928	1.52372	2.0266	6.03415	2.88317	8.05852	4.4772	12.4663	6.53633	18.2428	1.63399	5.17208	3.34355	9.38106	4.65184	13.0024	5.58755	15.8569
1.27912	3.49592	0.54767	1.53019	2.02852	5.99683	2.9	7.94276	4.48066	12.2262	6.53698	17.8787	1.65269	5.11262	3.34644	9.19989	4.6612	12.7668	5.59146	15.5445
1.29832	3.47866	0.553368	1.53488	2.03068	5.9571	2.91692	7.83179	4.4842	11.9959	6.5377	17.5291	1.67148	5.05604	3.34947	9.02624	4.67066	12.5409	5.59548	15.2448
1.31703	3.4608	0.557018	1.53785	2.03375	5.9044	2.93391	7.7253	4.48784	11.7746	6.5385	17.1932	1.69034	5.00212	3.35264	8.8597	4.68024	12.3239	5.59959	14.9572
1.33525	3.44235	0.562268	1.54209	2.03784	5.83989	2.95098	7.62305	4.49157	11.5619	6.53937	16.8701	1.70926	4.95068	3.35595	8.69985	4.68993	12.1155	5.60381	14.6809
1.35298	3.42334	0.56798	1.54664	2.0431	5.76498	2.96813	7.5248	4.4954	11.3574	6.5403	16.5593	1.72824	4.90154	3.35941	8.54635	4.69972	11.9151	5.60814	14.4153
1.37021	3.40378	0.575755	1.55275	2.04973	5.68125	2.98535	7.43031	4.49932	11.1605	6.54131	16.2599	1.74727	4.85453	3.36302	8.39884	4.70962	11.7222	5.61257	14.1598
1.38695	3.38371	0.5856	1.56035	2.05796	5.59041	3.00264	7.3394	4.50335	10.971	6.54238	15.9714	1.76633	4.80952	3.36678	8.25701	4.71961	11.5365	5.61711	13.9138
1.40318	3.36315	0.597523	1.56934	2.06684	5.50489	3.02001	7.25185	4.50747	10.7883	6.54353	15.6933	1.78544	4.76636	3.3707	8.12058	4.72969	11.3576	5.62176	13.6769
1.41893	3.34215	0.611533	1.57962	2.0764	5.4244	3.03744	7.16751	4.5117	10.6121	6.54474	15.4249	1.80457	4.72493	3.37478	7.98926	4.73987	11.185	5.62652	13.4485
1.4342	3.32075	0.627636	1.59108	2.08664	5.34867	3.05495	7.08619	4.51602	10.4422	6.54602	15.1658	1.82372	4.68511	3.37903	7.86281	4.75013	11.0186	5.63139	13.2283
1.44899	3.29899	0.643767	1.60218	2.09755	5.27744	3.07252	7.00775	4.52046	10.2782	6.54737	14.9155	1.84288	4.6468	3.38344	7.74098	4.76048	10.8579	5.63638	13.0158
1.46151	3.27977	0.659922	1.61295	2.10914	5.21047	3.09016	6.93203	4.52499	10.1197	6.54879	14.6736	1.86205	4.60991	3.38803	7.62357	4.77091	10.7027	5.64148	12.8107
1.47191	3.26322	0.676099	1.62339	2.12141	5.14753	3.10786	6.85891	4.52964	9.96667	6.55027	14.4397	1.88123	4.57433	3.39279	7.51035	4.78142	10.5526	5.6467	12.6125
1.48034	3.24944	0.692296	1.63352	2.13435	5.08838	3.12563	6.78826	4.5344	9.8187	6.55183	14.2133	1.9004	4.53999	3.39773	7.40113	4.79201	10.4076	5.65203	12.4209
1.48688	3.23849	0.708511	1.64335	2.14795	5.03282	3.14346	6.71996	4.53926	9.67559	6.55345	13.9942	1.91956	4.50681	3.40285	7.29575	4.80266	10.2672	5.65749	12.2357
1.49163	3.23041	0.724742	1.65288	2.16221	4.98064	3.16135	6.65389	4.54424	9.53713	6.55513	13.782	1.93871	4.47472	3.40815	7.19401	4.81338	10.1313	5.66307	12.0566
1.49465	3.22523	0.740988	1.66213	2.1771	4.93163	3.1793	6.58996	4.54933	9.4031	6.55689	13.5764	1.95783	4.44364	3.41365	7.09577	4.82417	9.99963	5.66877	11.8832
1.49894	3.21777	0.757247	1.67111	2.1926	4.8856	3.19731	6.52807	4.55454	9.2733	6.55871	13.377	1.97692	4.41352	3.41933	7.00087	4.83502	9.87206	5.6746	11.7153
1.50356	3.20965	0.773517	1.67983	2.20871	4.84237	3.21538	6.46812	4.55987	9.14756	6.5606	13.1837	1.99598	4.38429	3.42521	6.90918	4.84593	9.74837	5.68055	11.5527
1.50977	3.19857	0.789797	1.6883	2.2254	4.80176	3.23118	6.41739	4.56531	9.0257	6.56255	12.9961	2.01501	4.35591	3.4313	6.82055	4.85689	9.62838	5.68664	11.3951
1.51749	3.18454	0.806085	1.69652	2.24265	4.76359	3.24468	6.37523	4.57088	8.90756	6.56457	12.814	2.03398	4.32832	3.43758	6.73487	4.86791	9.51194	5.69285	11.2424
1.52664	3.16753	0.822381	1.70451	2.26043	4.72772	3.25586	6.34108	4.57656	8.79299	6.56665	12.6372	2.05291	4.30147	3.44406	6.652	4.87898	9.39889	5.6992	11.0942
1.53714	3.14758	0.838683	1.71228	2.27872	4.69397	3.26472	6.31453	4.58238	8.68184	6.5688	12.4654	2.07178	4.27532	3.45076	6.57185	4.89009	9.28907	5.70568	10.9505
1.54888	3.12469	0.85499	1.71982	2.29749	4.66221	3.27124	6.29525	4.58832	8.57396	6.57102	12.2985	2.09059	4.24983	3.45677	6.50413	4.90125	9.18235	5.71229	10.8111
1.56031	3.10187	0.871301	1.72715	2.31671	4.63229	3.27542	6.28302	4.59439	8.46924	6.5733	12.1362	2.10934	4.22495	3.46201	6.44792	4.91244	9.07859	5.71905	10.6757
1.57147	3.07915	0.887615	1.73428	2.33637	4.60408	3.28143	6.26559	4.60058	8.36756	6.57565	11.9783	2.12802	4.20066	3.46644	6.40245	4.92368	8.97768	5.72594	10.5442
1.58236	3.05658	0.903931	1.74121	2.35643	4.57746	3.28797	6.24684	4.60691	8.26878	6.57807	11.8247	2.14662	4.17691	3.47	6.36714	4.93494	8.8795	5.73297	10.4165
1.59302	3.03418	0.920249	1.74795	2.37686	4.5523	3.29688	6.22166	4.61338	8.17281	6.58054	11.6753	2.16514	4.15368	3.47265	6.34152	4.94624	8.78393	5.74015	10.2924
1.60346	3.012	0.936568	1.75451	2.39765	4.52851	3.30816	6.19033	4.61998	8.07954	6.58309	11.5298	2.18357	4.13093	3.47437	6.32529	4.95757	8.69087	5.74747	10.1718
1.6137	2.99006	0.952886	1.76089	2.41876	4.50597	3.32183	6.15318	4.62671	7.98886	6.5857	11.3881	2.20192	4.10863	3.47685	6.30216	4.96893	8.60021	5.75494	10.0545
1.62378	2.96839	0.969204	1.7671	2.44017	4.4846	3.3379	6.11062	4.63359	7.9007	6.58837	11.2501	2.22017	4.08677	3.47957	6.27729	4.98031	8.51187	5.76256	9.94046
1.63369	2.94701	0.985521	1.77314	2.46186	4.46429	3.3564	6.06308	4.64061	7.81495	6.59111	11.1155	2.23832	4.0653	3.48332	6.24393	4.99171	8.42575	5.77032	9.82951
1.64347	2.92594	1.00184	1.77902	2.48381	4.44498	3.37494	6.01688	4.64777	7.73153	6.59392	10.9844	2.25637	4.04422	3.48813	6.20248	5.00313	8.34177	5.77824	9.72156
1.65313	2.9052	1.01815	1.78475	2.50598	4.42657	3.39354	5.97196	4.65508	7.65035	6.59678	10.8566	2.27431	4.0235	3.49407	6.15343	5.01456	8.25984	5.78631	9.61649
1.66268	2.88481	1.03446	1.79032	2.52837	4.40901	3.41219	5.92827	4.66253	7.57136	6.59972	10.7319	2.29214	4.00311	3.50119	6.09735	5.02601	8.17989	5.79454	9.5142
1.67214	2.86477	1.05076	1.79575	2.55095	4.39222	3.4309	5.88578	4.67014	7.49446	6.60272	10.6102	2.30986	3.98304	3.50958	6.03488	5.03747	8.10185	5.80292	9.41461
1.68152	2.84511	1.06707	1.80104	2.57371	4.37614	3.44965	5.84442	4.67789	7.41959	6.60578	10.4915	2.32746	3.96326	3.51819	5.97436	5.04894	8.02563	5.81146	9.3176
1.69085	2.82582	1.08337	1.80619	2.59661	4.36071	3.46845	5.80417	4.6858	7.34668	6.60891	10.3757	2.34493	3.94377	3.52704	5.91571	5.06042	7.95119	5.82016	9.22311
1.70012	2.80691	1.09966	1.81122	2.61965	4.34588	3.48731	5.76498	4.69386	7.27566	6.61211	10.2625	2.36228	3.92455	3.53612	5.85888	5.0719	7.87845	5.82902	9.13103
1.70935	2.7884	1.11595	1.81611	2.64281	4.33161	3.50621	5.7268	4.70208	7.20649	6.61537	10.152	2.37951	3.90558	3.54543	5.80379	5.08338	7.80736	5.83804	9.0413
1.71855	2.77027	1.13223	1.82088	2.66608	4.31784	3.52517	5.68962	4.71046	7.13909	6.61869	10.0441	2.3966	3.88685	3.55498	5.75039	5.09487	7.73785	5.84722	8.95383
1.72774	2.75253	1.14851	1.82553	2.68943	4.30453	3.54418	5.65338	4.719	7.07342	6.62208	9.93864	2.41355	3.86834	3.56477	5.69862	5.10635	7.66987	5.85656	8.86856
1.73691	2.73519	1.16479	1.83006	2.71285	4.29165	3.56324	5.61807	4.7277	7.00942	6.62553	9.83557	2.43037	3.85005	3.57479	5.64843	5.11784	7.60337	5.86608	8.7854
1.74608	2.71824	1.18105	1.83449	2.73633	4.27916	3.58235	5.58365	4.73657	6.94703	6.62905	9.73482	2.44705	3.83195	3.58505	5.59976	5.12932	7.53829	5.87575	8.70429
1.75525	2.70168	1.19731	1.8388	2.75986	4.26702	3.60152	5.55008	4.7456	6.88621	6.63264	9.63631	2.46359	3.81406	3.59555	5.55255	5.1408	7.4746	5.8856	8.62518
1.76444	2.68551	1.21357	1.84301	2.78343	4.2552	3.62074	5.51734	4.75481	6.82692	6.63629	9.53997	2.47999	3.79634	3.60628	5.50677	5.15227	7.41225	5.89561	8.54798
1.77364	2.66972	1.22982	1.84711	2.80701	4.24368	3.64001	5.48541	4.76418	6.7691	6.64001	9.44574	2.49624	3.7788	3.61725	5.46235	5.16373	7.35119	5.90579	8.47266
1.78287	2.65431	1.24606	1.85112	2.8306	4.23242	3.65934	5.45426	4.77248	6.71989	6.64379	9.35354	2.51235	3.76142	3.62846	5.41927	5.17519	7.29137	5.91613	8.39914
1.79213	2.63927	1.26229	1.85502	2.85419	4.2214	3.67872	5.42387	4.77967	6.67878	6.64764	9.26332	2.52831	3.74421	3.63991	5.37746	5.18663	7.23277	5.92665	8.32737
1.80141	2.6246	1.27852	1.85884	2.87776	4.2106	3.69816	5.3942	4.78568	6.64535	6.65155	9.17502	2.54412	3.72715	3.65159	5.3369	5.19807	7.17535	5.93734	8.2573
1.81074	2.6103	1.29474	1.86256	2.90131	4.2	3.71765	5.36525	4.79048	6.61928	6.65553	9.08858	2.55979	3.71024	3.6635	5.29753	5.2095	7.11906	5.94819	8.18889
1.82011	2.59636	1.31095	1.8662	2.92483	4.18957	3.73721	5.33699	4.79404	6.60031	6.65958	9.00394	2.5753	3.69347	3.67564	5.25932	5.22092	7.06387	5.95922	8.12207
1.82952	2.58276	1.32716	1.86975	2.94831	4.17929	3.75682	5.30939	4.79633	6.58825	6.6637	8.92105	2.59067	3.67684	3.68802	5.22223	5.23233	7.00976	5.97042	8.0568
1.83897	2.56951	1.34336	1.87322	2.97173	4.16915	3.77649	5.28245	4.79963	6.57105	6.66788	8.83986	2.60589	3.66035	3.70062	5.18622	5.24372	6.95668	5.98178	7.99304
1.84848	2.5566	1.35955	1.87661	2.99509	4.15913	3.79623	5.25614	4.80325	6.5525	6.67212	8.76032	2.62097	3.64399	3.71345	5.15126	5.25511	6.90461	5.99332	7.93074
1.85804	2.54402	1.37573	1.87991	3.01837	4.14922	3.81603	5.23045	4.8082	6.52754	6.67644	8.68239	2.63589	3.62775	3.7265	5.11731	5.26649	6.85353	6.00502	7.86986
1.86766	2.53177	1.39191	1.88315	3.04158	4.13939	3.83589	5.20535	4.81453	6.4964	6.68082	8.60602	2.65067	3.61164	3.73977	5.08433	5.2764	6.80979	6.01689	7.81035
1.87733	2.51983	1.40808	1.88631	3.0647	4.12964	3.85582	5.18084	4.82227	6.45936	6.68527	8.53116	2.66531	3.59566	3.75325	5.05229	5.28483	6.77306	6.02893	7.75219
1.88706	2.5082	1.42424	1.8894	3.08773	4.11996	3.87582	5.1569	4.83147	6.41676	6.68979	8.45778	2.67981	3.5798	3.76695	5.02116	5.29181	6.74307	6.04114	7.69532
1.89685	2.49688	1.44039	1.89241	3.11065	4.11032	3.89589	5.13351	4.84221	6.36899	6.69438	8.38583	2.69416	3.56406	3.78086	4.99091	5.29732	6.71959	6.05352	7.63972
1.9067	2.48585	1.45653	1.89536	3.13345	4.10072	3.91602	5.11066	4.85312	6.32237	6.69903	8.31527	2.70837	3.54844	3.79497	4.96151	5.30137	6.70247	6.06606	7.58535
1.91661	2.47511	1.47267	1.89825	3.15615	4.09115	3.93623	5.08834	4.86423	6.27686	6.70375	8.24607	2.72245	3.53294	3.80928	4.93292	5.30397	6.69156	6.07877	7.53217
1.92659	2.46465	1.4888	1.90107	3.17871	4.08161	3.95652	5.06653	4.87552	6.23245	6.70855	8.1782	2.73639	3.51756	3.82378	4.90513	5.30769	6.67597	6.09164	7.48014
1.93663	2.45447	1.50492	1.90382	3.20114	4.07207	3.97688	5.04522	4.88699	6.1891	6.71341	8.11161	2.75021	3.5023	3.83848	4.87809	5.31174	6.65913	6.10467	7.42925
1.94673	2.44455	1.52103	1.90652	3.22344	4.06253	3.99731	5.0244	4.89866	6.14679	6.71834	8.04627	2.76389	3.48715	3.85337	4.85179	5.31725	6.6364	6.11786	7.37944
1.9569	2.4349	1.53714	1.90916	3.24559	4.05299	4.01782	5.00406	4.91051	6.10548	6.72334	7.98216	2.77744	3.47213	3.86843	4.8262	5.32421	6.60793	6.13121	7.33071
1.96714	2.4255	1.55324	1.91174	3.26759	4.04343	4.03842	4.98418	4.92255	6.06515	6.72842	7.91923	2.79087	3.45723	3.88367	4.80129	5.33263	6.57393	6.14473	7.283
1.97743	2.41635	1.56933	1.91427	3.28943	4.03386	4.05909	4.96476	4.93479	6.02578	6.73356	7.85747	2.80418	3.44244	3.89909	4.77703	5.34249	6.53461	6.15839	7.23631
1.9878	2.40744	1.58541	1.91674	3.31111	4.02425	4.07984	4.94579	4.94721	5.98734	6.73878	7.79683	2.81738	3.42778	3.91467	4.75341	5.35381	6.49024	6.17222	7.19059
1.99823	2.39877	1.60148	1.91916	3.33263	4.01462	4.10068	4.92725	4.95983	5.94981	6.74406	7.7373	2.83046	3.41324	3.9304	4.7304	5.36513	6.44665	6.18619	7.14582
2.00872	2.39032	1.61755	1.92152	3.35397	4.00495	4.1216	4.90913	4.97265	5.91316	6.74942	7.67884	2.84343	3.39883	3.94629	4.70797	5.37645	6.40382	6.20032	7.10198
2.01928	2.3821	1.63361	1.92384	3.37514	3.99524	4.14261	4.89143	4.98565	5.87737	6.75485	7.62143	2.85629	3.38453	3.96234	4.68611	5.38776	6.36173	6.2146	7.05904
2.02991	2.37409	1.64966	1.92611	3.39612	3.98549	4.1637	4.87412	4.99885	5.84243	6.76035	7.56505	2.86905	3.37037	3.97852	4.66479	5.39908	6.32037	6.22903	7.01698
